lambda_air(A)  lambda_vac(A)  FWHM(A)  Flux(10^-16^erg/s/cm2/{AA})
  8614.5566    8616.9230  0.1842    0.0944
  8615.5605    8617.9270  0.1784    0.2023
  8617.1367    8619.5040  0.1903    0.1873
  8618.3652    8620.7330  0.2010    0.3552
  8619.9199    8622.2880  0.1936    0.4008
  8621.3574    8623.7260  0.2035    0.5968
  8622.8955    8625.2640  0.2021    0.5840
  8624.5439    8626.9130  0.1998    0.9917
  8626.0693    8628.4390  0.1994    0.8934
  8627.9229    8630.2930  0.1976    1.3897
  8629.4307    8631.8010  0.1973    1.2563
  8631.4961    8633.8670  0.2001    1.6280
  8632.9873    8635.3590  0.2107    1.3567
  8635.2666    8637.6390  0.2026    1.6369
  8636.7256    8639.0980  0.2034    1.1784
  8639.2500    8641.6230  0.2068    1.1066
  8640.6592    8643.0330  0.1992    0.5475
  8641.8545    8644.2280  0.2141    0.3259
  8642.2803    8644.6540  0.2331    0.2297
  8643.8799    8646.2540  0.2057    0.0559
  8646.8994    8649.2750  0.2065    1.2514
  8649.7158    8652.0920  0.2368    1.6251
  8650.3818    8652.7580  0.1685    0.8268
  8651.2939    8653.6700  0.2050    4.6954
  8652.2578    8654.6340  0.2300    0.1943
  8653.7686    8656.1460  0.1715    0.2628
  8654.3594    8656.7370  0.2115    4.9773
  8655.8623    8658.2400  0.2123    6.3010
  8657.7314    8660.1090  0.1991    0.2662
  8659.1406    8661.5190  0.1948    5.6847
  8660.6436    8663.0220  0.1989    6.5728
  8664.1299    8666.5100  0.2129    5.0979
  8665.5908    8667.9710  0.2163    6.0434
  8667.9570    8670.3380  0.1837    0.2170
  8669.2812    8671.6620  0.2147    4.7635
  8670.7305    8673.1120  0.2184    5.2720
  8674.6318    8677.0140  0.2180    3.5000
  8676.0664    8678.4490  0.2081    3.7420
  8680.1719    8682.5560  0.2141    2.4899
  8681.5889    8683.9730  0.2139    2.5033
  8683.4023    8685.7870  0.2803    0.1055
  8685.8926    8688.2780  0.2099    1.5132
  8687.3027    8689.6890  0.2121    1.6904
  8691.8115    8694.1990  0.2037    0.8302
  8693.2119    8695.6000  0.2135    0.9427
  8697.9199    8700.3090  0.2088    0.4466
  8699.3057    8701.6950  0.2071    0.5248
  8700.1221    8702.5120  0.2174    0.5134
  8700.6934    8703.0830  0.2101    0.4567
  8701.6357    8704.0260  0.2343    0.1092
  8702.1357    8704.5260  0.1611    0.1104
  8704.2119    8706.6030  0.2208    0.2644
  8705.6084    8707.9990  0.2261    0.2620
  8706.9551    8709.3460  0.2200    0.7120
  8707.9912    8710.3830  0.2188    0.5934
  8710.7178    8713.1100  0.2104    0.1557
  8711.5947    8713.9870  0.1277    0.0957
  8712.0811    8714.4740  0.2009    0.1564
  8716.6309    8719.0250  0.1705    0.1056
  8717.4072    8719.8010  0.2993    0.1102
  8718.7539    8721.1480  0.1998    0.1154
  8726.7539    8729.1510  0.2171    0.3780
  8737.4805    8739.8800  0.2101    0.2676
  8739.1641    8741.5640  0.2146    0.2064
  8740.6035    8743.0040  0.2135    0.3260
  8742.9736    8745.3750  0.2213    0.2194
  8746.9824    8749.3850  0.2451    0.1280
  8750.2480    8752.6510  0.2142    0.3639
  8758.7295    8761.1350  0.2129    6.5773
  8760.2783    8762.6840  0.2084    3.1061
  8761.3369    8763.7430  0.2300   13.5895
  8761.6172    8764.0230  0.2680    4.7877
  8763.0166    8765.4230  0.2214    0.5219
  8763.7236    8766.1300  0.2109    0.4298
  8766.4189    8768.8260  0.2324    7.1627
  8767.9248    8770.3330  0.2183   22.7940
  8769.1592    8771.5670  0.2015    0.7248
  8770.3760    8772.7850  0.2086    0.5947
  8775.0352    8777.4450  0.2573    0.2276
  8776.2217    8778.6320  0.2280   10.2830
  8778.3438    8780.7550  0.2117   25.0033
  8790.2402    8792.6540  0.2247    0.7836
  8791.1895    8793.6040  0.2333    9.4346
  8801.5957    8804.0130  0.1256    0.1356
  8801.9570    8804.3740  0.2074    0.1347
  8809.2188    8811.6380  0.2233    0.7206
  8810.1826    8812.6020  0.2577    0.4884
  8810.4424    8812.8620  0.2478    0.4835
  8825.4648    8827.8880  0.3433    4.5045
  8827.1123    8829.5360  0.2210   59.4300
  8828.0098    8830.4340  0.2367    0.3022
  8829.8887    8832.3130  0.2130    0.2121
  8830.7686    8833.1930  0.3584    0.5870
  8831.5596    8833.9850  0.2097    0.4335
  8832.9209    8835.3460  0.3207    1.3687
  8833.1221    8835.5480  0.3117    1.2414
  8833.5469    8835.9730  0.2321    0.2311
  8834.1162    8836.5420  0.2210    0.5105
  8834.5264    8836.9520  0.2125    0.4300
  8836.4492    8838.8760  0.3799   13.8985
  8837.6836    8840.1100  0.2152    0.5859
  8845.2783    8847.7070  0.2328    0.4388
  8845.6152    8848.0440  0.2268    0.4462
  8847.0059    8849.4350  0.2302    0.2099
  8849.6045    8852.0340  0.2163    3.9797
  8850.0742    8852.5040  0.2115    3.9305
  8854.1738    8856.6050  0.1850    0.1456
  8859.2002    8861.6330  0.1626    0.0935
  8859.8096    8862.2420  0.0915    0.1021
  8860.7676    8863.2010  0.1323    0.1145
  8861.6670    8864.1000  0.3308    0.4277
  8862.4990    8864.9320  0.2381    0.1780
  8862.8477    8865.2810  0.2279    0.5152
  8863.4062    8865.8400  0.2056    0.3654
  8864.3809    8866.8150  0.2643    0.0932
  8867.0039    8869.4390  0.2166    1.2292
  8867.6055    8870.0400  0.2522   14.1431
  8871.3438    8873.7800  0.2061    0.0998
  8884.4912    8886.9310  0.2619    0.1543
  8885.8564    8888.2960  0.2443   43.2693
  8888.6992    8891.1400  0.2085    0.3962
  8890.0459    8892.4870  0.2109    0.4082
  8895.2139    8897.6560  0.2590    0.2700
  8895.4570    8897.8990  0.2425    0.2697
  8896.5596    8899.0020  0.2106    0.3264
  8897.2559    8899.6990  0.2171    0.2817
  8903.1230    8905.5670  0.2235   19.4915
  8904.3555    8906.8000  0.2116    0.4244
  8905.6846    8908.1300  0.2230    0.1517
  8908.4043    8910.8500  0.2153    0.6979
  8910.0420    8912.4880  0.1988    0.5685
  8914.8096    8917.2570  0.2949    0.1387
  8916.7568    8919.2050  0.1971    0.1521
  8919.6367    8922.0860  0.3640   31.4542
  8920.8555    8923.3050  0.2334    0.4096
  8921.4277    8923.8770  0.2628    0.1607
  8922.7998    8925.2500  0.1900    0.1251
  8924.0527    8926.5030  0.2337    0.2843
  8926.1875    8928.6380  0.2037    0.2061
  8926.7793    8929.2300  0.2329    0.3589
  8927.4131    8929.8640  0.1792    0.1130
  8928.0928    8930.5440  0.2505    0.7385
  8929.0957    8931.5470  0.2609    0.1164
  8929.6973    8932.1490  0.2298    0.2277
  8930.1201    8932.5720  0.2262    0.1364
  8931.8105    8934.2630  0.1866    0.1249
  8933.1084    8935.5610  0.2617    0.1484
  8933.9609    8936.4140  0.2187    0.1715
  8934.3271    8936.7800  0.1981    0.1544
  8934.7627    8937.2160  0.2464    0.1270
  8935.3633    8937.8160  0.1911    0.2118
  8936.2568    8938.7100  0.2825    0.2588
  8937.9551    8940.4090  0.1863    0.1388
  8939.3887    8941.8430  0.4387    0.1286
  8939.7871    8942.2410  0.2457    0.1364
  8941.4248    8943.8800  0.2186    0.1225
  8943.4082    8945.8640  0.2262   16.6944
  8945.1709    8947.6270  0.1870    0.1109
  8947.5557    8950.0120  0.2020    0.1307
  8955.5400    8957.9990  0.2349    0.1131
  8957.9512    8960.4110  0.2531   19.3162
  8958.2539    8960.7130  0.2400   19.2912
  8960.1611    8962.6210  0.2462    0.1606
  8962.9893    8965.4500  0.2991    0.1041
  8963.3525    8965.8130  0.1776    0.1359
  8965.0059    8967.4670  0.2674    0.1714
  8968.5107    8970.9730  0.2541    0.1630
  8969.4092    8971.8720  0.3033    0.1042
  8970.0977    8972.5600  0.2130    0.1898
  8971.2324    8973.6950  0.3736    0.6119
  8973.8682    8976.3320  0.2042    0.1598
  8975.4395    8977.9040  0.2766    0.1674
  8977.5586    8980.0230  0.4239    0.0987
  8977.9941    8980.4590  0.2913    0.1786
  8978.5488    8981.0140  0.2013    0.1258
  8979.4844    8981.9500  0.2286    0.2566
  8981.1113    8983.5770  0.2166    0.6937
  8982.3320    8984.7980  0.2119    0.4108
  8985.4141    8987.8810  0.2948    0.1154
  8985.7842    8988.2510  0.2219    0.7310
  8986.9551    8989.4220  0.2196    0.1322
  8987.6357    8990.1030  0.1956    0.1798
  8988.3838    8990.8510  0.2406   10.3731
  8991.4648    8993.9330  0.3496    0.1024
  8992.3096    8994.7780  0.3482    0.4739
  8992.5420    8995.0110  0.2103    0.5532
  8993.0693    8995.5380  0.5100    0.1011
  8997.9102    9000.3800  0.1824    0.0927
  9001.1348    9003.6060  0.2152   11.9922
  9001.5928    9004.0640  0.2149   12.0589
  9020.9346    9023.4110  0.2030    0.3393
  9021.2695    9023.7460  0.2164    0.3545
  9025.9658    9028.4440  0.1367    0.1003
  9027.5508    9030.0290  0.2064    0.1598
  9028.5059    9030.9840  0.1716    0.3075
  9028.9951    9031.4740  0.1985    0.1597
  9030.2490    9032.7280  0.2510    0.1448
  9031.7500    9034.2290  0.2250    0.2032
  9038.0586    9040.5400  0.3675    3.5968
  9043.6084    9046.0910  0.2656    0.2746
  9049.2539    9051.7380  0.2232    5.8107
  9049.8652    9052.3490  0.2175    5.6008
  9050.7725    9053.2570  0.1484    0.1492
  9052.2432    9054.7280  0.2361    0.1394
  9053.9561    9056.4410  0.2061    0.1372
  9055.7031    9058.1890  0.2301    0.1243
  9056.6172    9059.1030  0.3333    0.1530
  9056.9688    9059.4550  0.1746    0.2206
  9059.4648    9061.9520  0.1968    0.1136
  9061.0791    9063.5660  0.1832    0.1017
  9064.2500    9066.7380  0.2202    0.4834
  9065.6543    9068.1430  0.2309    0.3791
  9068.5586    9071.0480  0.2357    0.6474
  9070.6602    9073.1500  0.2228    0.4858
  9074.5439    9077.0350  0.1730    0.1060
  9076.2646    9078.7560  0.2444    0.1322
  9079.5391    9082.0310  0.2355    0.1367
  9081.2021    9083.6950  0.1901    0.1416
  9082.7969    9085.2900  0.2136    0.1153
  9083.6006    9086.0940  0.2158    0.1216
  9090.3467    9092.8420  0.2344    0.1457
  9091.1816    9093.6770  0.1669    0.0998
  9091.9980    9094.4940  0.2307    0.1556
  9092.4209    9094.9170  0.2367    1.5502
  9092.7285    9095.2240  0.2518    1.5785
  9093.6650    9096.1610  0.2428    0.4061
  9096.1523    9098.6490  0.2086    0.1408
  9097.3467    9099.8440  0.1590    0.0831
  9097.7852    9100.2820  0.2368    0.1515
  9098.8906    9101.3880  0.2158    0.1082
  9099.3320    9101.8300  0.2247    0.1156
  9102.4053    9104.9040  0.2171    2.8839
  9103.1807    9105.6790  0.2253    2.6350
  9103.8574    9106.3560  0.2957    0.1249
  9108.6826    9111.1830  0.1821    0.0955
  9110.2441    9112.7450  0.1475    0.1157
  9133.9648    9136.4720  0.2587    0.2417
  9136.3682    9138.8760  0.2230    0.2221
  9139.9131    9142.4220  0.2115    0.1660
  9144.0049    9146.5150  0.1993    0.0987
  9147.2451    9149.7560  0.7100    0.1038
  9151.4199    9153.9320  0.3519    0.2878
  9151.7930    9154.3050  0.2170    1.1660
  9152.2568    9154.7690  0.2182    1.0332
  9152.9746    9155.4870  0.2149    0.4334
  9154.5908    9157.1030  0.2217    0.3345
  9156.9746    9159.4880  0.2225    0.5457
  9159.3496    9161.8630  0.2130    0.4246
  9160.6992    9163.2130  0.2154    1.6739
  9161.6543    9164.1690  0.2190    1.5777
  9174.5605    9177.0780  0.1383    0.1250
  9175.8809    9178.3990  0.2005    0.1240
  9200.0742    9202.5990  0.1951    0.1276
  9205.1201    9207.6460  0.2200    0.1271
  9208.8389    9211.3660  0.2594    0.1328
  9210.5332    9213.0610  0.2588    0.1245
  9214.5283    9217.0570  0.2925    0.1256
  9216.2725    9218.8020  0.2293    1.0584
  9216.8770    9219.4060  0.2357    0.8125
  9224.2949    9226.8260  0.2393    1.5935
  9225.4199    9227.9520  0.2307    1.2010
  9226.9385    9229.4710  0.3069    0.2323
  9228.5430    9231.0760  0.1601    0.1408
  9229.2285    9231.7610  0.2683    0.1408
  9229.4727    9232.0060  0.2466    0.1440
  9233.5342    9236.0680  0.2805    0.1331
  9233.9463    9236.4800  0.3271    0.1171
  9247.5361    9250.0740  0.2219    0.4157
  9248.3369    9250.8750  0.2228    0.1815
  9249.3760    9251.9140  0.2304    0.2919
  9250.6221    9253.1610  0.2489    0.2056
  9251.2715    9253.8100  0.2145    0.5588
  9253.9248    9256.4640  0.2190    0.3296
  9254.5420    9257.0820  0.2037    0.1411
  9260.8750    9263.4160  0.3272    0.1885
  9262.5908    9265.1330  0.2851    0.5566
  9265.9932    9268.5360  0.2791    0.2874
  9286.0557    9288.6040  0.2173    0.9640
  9286.8193    9289.3680  0.2267    0.7013
  9288.6191    9291.1680  0.2130    0.4738
  9293.2783    9295.8280  0.2196    1.1641
  9294.6387    9297.1890  0.2193    1.0011
  9306.0107    9308.5640  0.2268   11.6258
  9307.3848    9309.9390  0.2291   21.5181
  9309.0615    9311.6160  0.2719    5.3789
  9310.7617    9313.3170  0.2645    2.9120
  9312.9043    9315.4600  0.2540   10.2950
  9313.3457    9315.9010  0.2382   34.7735
  9316.4717    9319.0280  0.1547    0.2722
  9317.8203    9320.3770  0.3781    3.0970
  9322.4805    9325.0380  0.2245   10.9019
  9323.7627    9326.3210  0.2311   33.9415
  9330.5557    9333.1160  0.2570    1.1287
  9331.1133    9333.6740  0.3779    1.3131
  9337.8740    9340.4360  0.2364   12.6347
  9346.5957    9349.1600  0.2347    0.1628
  9347.0566    9349.6210  0.1784    0.1560
  9348.2588    9350.8240  0.3274    0.4397
  9348.5869    9351.1520  0.2388    1.0165
  9349.5820    9352.1470  0.3013    0.7309
  9349.8418    9352.4070  0.1964    0.7062
  9350.3145    9352.8800  0.2412    0.2792
  9351.7266    9354.2930  0.2384    0.5202
  9354.6904    9357.2570  0.2332    0.2942
  9361.3037    9363.8720  0.2302    0.7874
  9362.2441    9364.8130  0.2234    0.7569
  9367.8828    9370.4530  0.2269    1.2258
  9372.1318    9374.7030  0.2270    0.7551
  9373.4150    9375.9870  0.2195    0.6327
  9373.8281    9376.4000  0.2474    0.6451
  9374.3379    9376.9100  0.3557    6.6110
  9375.9766    9378.5490  0.2379   89.7287
  9382.7812    9385.3560  0.3025    1.4524
  9383.0801    9385.6550  0.2576    1.5253
  9386.7949    9389.3700  0.3064    9.7780
  9394.3311    9396.9090  0.2359    0.2527
  9396.9199    9399.4980  0.2468    0.6356
  9397.2803    9399.8590  0.2354    0.7369
  9401.2754    9403.8550  0.2908    0.5924
  9401.8574    9404.4370  0.2368    6.3829
  9402.3359    9404.9160  0.2220    6.1549
  9402.7158    9405.2960  0.2607    0.5419
  9403.2891    9405.8690  0.2286    0.4407
  9404.9453    9407.5260  0.4059    0.1268
  9405.1152    9407.6960  0.2252    0.1257
  9416.6162    9419.2000  0.3040    0.3082
  9416.8867    9419.4700  0.2502    0.3143
  9419.7461    9422.3300  0.2654   18.4213
  9421.8613    9424.4460  0.2448    0.2584
  9422.7363    9425.3210  0.2223    2.0675
  9433.3438    9435.9320  0.4375    0.1270
  9436.1592    9438.7480  0.3940    0.3282
  9438.4531    9441.0430  0.2024    0.3599
  9439.6699    9442.2600  0.2600   58.1552
  9441.7822    9444.3730  0.2379    0.1786
  9442.2627    9444.8530  0.2207    0.8717
  9443.4141    9446.0050  0.1787    0.1304
  9446.7949    9449.3870  0.2196    0.6457
  9448.2578    9450.8500  0.2530    1.5851
  9450.1240    9452.7170  0.2101    0.8560
  9455.3174    9457.9110  0.2291    0.4011
  9457.7764    9460.3710  0.3224    0.2989
  9458.5244    9461.1190  0.2445   27.0894
  9476.8955    9479.4950  0.3836   39.9477
  9478.5459    9481.1460  0.2429    0.3080
  9479.4385    9482.0390  0.3070    0.2140
  9483.0361    9485.6380  0.2732    0.4525
  9484.1719    9486.7740  0.2405    0.1891
  9490.5303    9493.1340  0.2786    0.8887
  9495.0312    9497.6360  0.4857    0.1323
  9497.9365    9500.5420  0.2465    0.1300
  9499.9619    9502.5680  0.2817    0.1717
  9502.8350    9505.4420  0.2354   21.7464
  9504.7119    9507.3190  0.1788    0.1595
  9519.2051    9521.8160  0.2415   24.7207
  9519.5391    9522.1500  0.2573   26.0261
  9525.4131    9528.0260  0.2822    0.1271
  9526.5488    9529.1620  0.1867    0.1421
  9529.1592    9531.7730  0.2270    0.7958
  9530.4951    9533.1090  0.2340    0.6528
  9534.7256    9537.3410  0.2273    0.9731
  9536.8926    9539.5090  0.3083    1.2238
  9537.1035    9539.7200  0.3430    0.8751
  9552.5469    9555.1670  0.2509   15.5670
  9560.1768    9562.7990  0.3269    0.6319
  9560.4268    9563.0490  0.2511    0.7114
  9567.1133    9569.7380  0.2338   18.2210
  9567.6113    9570.2360  0.2316   17.4108
  9569.2051    9571.8300  0.2296    0.3142
  9571.8545    9574.4800  0.2657    0.2205
  9572.3174    9574.9430  0.2203    0.4038
  9575.9727    9578.5990  0.2177    0.2563
  9591.7227    9594.3540  0.2660    0.4627
  9592.0869    9594.7180  0.2390    0.4361
  9607.7021    9610.3370  0.3677    6.6388
  9615.2031    9617.8400  0.2539    0.4125
  9620.6641    9623.3030  0.2342    8.9747
  9621.3369    9623.9760  0.2403    5.7744
  9622.3135    9624.9530  0.2094    0.6444
  9623.8555    9626.4950  0.2425    0.4522
  9627.4580    9630.0990  0.2315    0.8572
  9629.8350    9632.4760  0.2300    0.6212
  9631.1914    9633.8330  0.2541    0.2284
  9631.5908    9634.2330  0.3293    0.2711
  9633.8740    9636.5160  0.1565    0.1888
  9635.9170    9638.5600  0.2514    0.1406
  9651.5771    9654.2240  0.3849    0.3232
  9653.2754    9655.9230  0.4185    0.4281
  9653.8643    9656.5120  0.2560    0.3016
  9654.6416    9657.2900  0.3456    0.2411
  9655.6055    9658.2540  0.3990    0.2707
  9657.8525    9660.5010  0.3798    0.5127
  9659.0889    9661.7380  0.3761    0.9104
  9660.3398    9662.9890  0.3637    0.4396
  9662.6396    9665.2900  0.4786    1.0693
  9668.7051    9671.3570  0.3442    4.9271
  9669.7578    9672.4100  0.2567    1.0284
  9670.9404    9673.5930  0.2649    0.5753
  9674.2432    9676.8960  0.2985    1.6369
  9678.0938    9680.7480  0.2199    0.1691
  9678.5479    9681.2020  0.1994    0.1786
  9679.9746    9682.6290  0.2363    5.0576
  9680.8311    9683.4860  0.2366    4.6384
  9682.2480    9684.9030  0.3540    7.4141
  9685.7217    9688.3780  0.3660    0.4212
  9690.5107    9693.1680  0.2634    4.4186
  9693.1904    9695.8490  0.2288    0.3763
  9697.2148    9699.8740  0.1867    0.2298
  9697.9014    9700.5610  0.2521    0.4031
  9699.3428    9702.0030  0.3049   17.8120
  9704.6406    9707.3020  0.3427    0.2914
  9704.9541    9707.6160  0.3971    0.2844
  9711.7148    9714.3780  0.2386    9.0829
  9719.8389    9722.5050  0.2703   26.9594
  9721.9375    9724.6040  0.2242    0.5077
  9723.7432    9726.4100  0.2334    0.4039
  9725.4912    9728.1580  0.3743    0.1832
  9726.7520    9729.4200  0.2289    0.6183
  9728.0400    9730.7080  0.2400    0.2625
  9728.4697    9731.1380  0.3929    0.2101
  9729.4502    9732.1180  0.2296    0.4744
  9732.8271    9735.4960  0.3320    0.4234
  9734.8066    9737.4760  0.2331    2.0113
  9735.2891    9737.9590  0.2441    1.7961
  9738.0957    9740.7660  0.2485    9.6260
  9745.2354    9747.9080  0.2305    3.0432
  9746.3027    9748.9760  0.2368    2.8749
  9755.9961    9758.6720  0.5389    0.1989
  9784.4668    9787.1500  0.5186    0.2648
  9788.3828    9791.0670  0.3639    0.1727
  9789.2988    9791.9830  0.2966    4.2775
  9789.5098    9792.1940  0.3384    4.0981
  9791.1162    9793.8010  0.2841   60.5073
  9796.2998    9798.9860  0.2580    1.1542
  9796.7705    9799.4570  0.2557    1.1322
  9799.5508    9802.2380  0.3739    8.8878
  9799.8271    9802.5140  0.2831   12.5226
  9803.9209    9806.6090  0.5347    0.1554
  9804.4258    9807.1140  0.2022    0.2063
  9807.1826    9809.8720  0.2420    1.4456
  9807.8516    9810.5410  0.2773    1.4967
  9808.4600    9811.1500  0.2878    0.4667
  9811.5947    9814.2850  0.2442    3.8266
  9812.3740    9815.0650  0.2452    3.7321
  9816.6211    9819.3130  0.2424    2.0914
  9817.9180    9820.6100  0.2575    2.4962
  9820.4375    9823.1300  0.2548    0.2227
  9821.6475    9824.3410  0.1088    0.2360
  9825.9844    9828.6790  0.2672    0.2239
  9827.5332    9830.2280  0.2450    0.9904
  9828.4316    9831.1270  0.2130    0.4108
  9828.9170    9831.6120  0.2429    1.0730
  9830.4971    9833.1930  0.2400    0.3473
  9832.9258    9835.6220  0.2295    0.4879
  9835.9629    9838.6600  0.2643    0.3869
  9847.4541    9850.1540  0.2605    0.2904
  9848.4941    9851.1950  0.2917   16.2151
  9849.6016    9852.3020  0.2520    0.4278
  9867.9150    9870.6210  0.3009    0.1547
  9872.1475    9874.8540  0.3173   50.2618
  9883.4160    9886.1260  0.2454    0.4758
  9885.7578    9888.4680  0.2322    1.2060
  9886.5820    9889.2930  0.2304    1.0407
  9894.3701    9897.0830  0.3090    2.0793
  9894.7510    9897.4640  0.2501   20.6942
  9895.8682    9898.5820  0.2352    1.4874
  9900.4062    9903.1210  0.2447    0.6234
  9912.7432    9915.4610  0.2399    0.5726
  9913.8242    9916.5420  0.3762    1.4505
  9914.5547    9917.2730  0.3354   29.1613
  9914.7773    9917.4960  0.3022   32.2443
  9941.6650    9944.3910  0.2535   23.0330
  9942.2129    9944.9390  0.2617   12.3498
  9944.5566    9947.2830  0.6660    0.7566
  9945.2979    9948.0250  0.3350   16.0065
  9946.5146    9949.2420  0.2619   34.1659
  9947.7471    9950.4740  0.2780    8.7475
  9948.3740    9951.1020  0.2730    5.7065
  9949.6943    9952.4220  0.3272    3.0182
  9956.5986    9959.3280  0.2721   47.6926
  9960.3594    9963.0900  0.3169    3.8815
  9961.7217    9964.4530  0.2914   19.8573
  9962.1436    9964.8750  0.2562   18.7629
  9970.7373    9973.4710  0.2471    0.9996
  9971.8340    9974.5680  0.4702    0.9972
  9972.3574    9975.0910  0.2576   12.8893
  9974.2598    9976.9940  0.3340    0.9357
  9974.4873    9977.2220  0.3160    0.8005
  9977.4072    9980.1430  0.2773    0.9325
  9978.5898    9981.3260  0.4345    2.9411
  9980.2871    9983.0230  0.6427    1.8030
  9985.9463    9988.6840  0.2740    0.2058
 10000.0078   10002.7490  0.3751    5.8582
 10000.9385   10003.6800  0.2862    1.0628
 10002.3164   10005.0590  0.2680    0.4816
 10002.6953   10005.4380  0.2721    0.4817
 10011.3643   10014.1090  0.3734    6.5382
 10012.8311   10015.5760  0.2502   85.4184
 10013.7061   10016.4510  0.2294   10.3341
 10014.2979   10017.0430  0.2514    9.4928
 10021.2266   10023.9740  0.3374    1.6888
 10021.5273   10024.2750  0.2891    1.6918
 10025.4756   10028.2240  0.3897   24.0857
 10028.7871   10031.5360  0.1844    0.3193
 10031.0674   10033.8170  0.2390    0.2796
 10032.7754   10035.5260  0.2305    0.2019
 10033.3174   10036.0680  0.3508    0.3102
 10035.5146   10038.2660  0.1409    0.4341
 10036.0605   10038.8120  0.2461    0.3605
 10037.7031   10040.4550  0.2265    0.8543
 10038.0547   10040.8070  0.2481    0.7286
 10043.2959   10046.0490  0.2479    7.1704
 10043.7754   10046.5290  0.2436    7.0959
 10058.8887   10061.6460  0.3165    1.9454
 10059.1904   10061.9480  0.2446    1.9163
 10060.7246   10063.4830  0.2964   18.7447
 10062.4521   10065.2110  0.2241    0.9275
 10063.6523   10066.4110  0.4250    0.8339
 10066.7988   10069.5580  0.2427    2.5873
 10067.6699   10070.4300  0.2505    2.4256
 10069.6953   10072.4560  0.2566    1.1766
 10070.4971   10073.2580  0.2511    3.6610
 10071.2578   10074.0190  0.2402    3.5811
 10071.7812   10074.5420  0.2680    1.1742
 10076.2334   10078.9960  0.5884    0.2903
 10082.4580   10085.2220  0.2912   55.3395
 10096.0664   10098.8340  0.1876    0.7762
 10103.6250   10106.3950  0.2868   21.7419
 10122.2529   10125.0280  0.3428    0.8075
 10122.7119   10125.4870  0.1654    1.0986
 10124.0146   10126.7900  0.4241   45.1588
 10131.3984   10134.1760  0.2789    0.3650
 10132.1777   10134.9550  0.2480    1.2482
 10133.1289   10135.9070  0.2348    1.0249
 10136.4639   10139.2420  0.1040    0.4177
 10138.6729   10141.4520  0.2730    0.2628
 10143.0576   10145.8380  0.3717    1.0464
 10147.3984   10150.1800  0.3838    0.6946
 10149.0176   10151.8000  0.3805    2.5094
 10152.2246   10155.0070  0.3963    1.2811
 10152.9844   10155.7670  0.2662   25.5568
 10154.8604   10157.6440  0.2626    1.0938
 10155.0146   10157.7980  0.4528    0.8706
 10158.4922   10161.2770  0.3727    7.5694
 10161.2402   10164.0250  0.2989    0.6183
 10162.6982   10165.4840  0.2444    0.6067
 10164.3809   10167.1670  0.3124    4.1542
 10167.6289   10170.4160  0.3340    1.6583
 10167.8887   10170.6760  0.3350    1.0936
 10170.3643   10173.1520  0.2292    1.3437
 10171.5469   10174.3350  0.2687   34.2626
 10171.9668   10174.7550  0.4162   37.2201
 10181.0537   10183.8440  0.2670   11.7465
 10182.5986   10185.3900  0.3235    0.7768
 10184.8154   10187.6070  0.5575    0.7645
 10185.1250   10187.9170  0.2743    0.9677
 10189.7197   10192.5130  0.3210   44.3114
 10190.7246   10193.5180  0.6765    0.8103
 10194.8271   10197.6210  0.4633    0.7085
 10198.8096   10201.6050  0.2540    0.7736
 10199.9170   10202.7130  0.2157    0.6154
 10203.0664   10205.8630  0.2481   21.2981
 10206.7949   10209.5930  0.2406    0.7947
 10208.8076   10211.6060  0.2570   18.8235
 10211.0664   10213.8650  0.2789   58.7144
 10220.5693   10223.3710  0.2650    0.8786
 10225.5400   10228.3430  0.2430   21.8175
 10226.0850   10228.8880  0.2492   21.1486
 10230.6719   10233.4760  0.2650   23.2005
 10271.1152   10273.9300  0.3727    7.3343
 10284.7002   10287.5190  0.4323    8.6983
 10284.9004   10287.7190  0.3201    9.5205
 10286.6523   10289.4720  0.3064  154.4083
 10292.2812   10295.1020  0.2580    3.2538
 10292.7852   10295.6060  0.2841    2.5989
 10295.8730   10298.6950  0.2939   27.8010
 10296.1914   10299.0130  0.3189   30.6309
 10309.1318   10311.9570  0.2596    9.2266
 10309.9229   10312.7480  0.2414    9.8955
 10326.5918   10329.4220  0.2516    2.5189
 10328.0234   10330.8540  0.2492    2.6542
 10339.9590   10342.7930  0.8879    2.6693
 10340.1885   10343.0220  0.2766    3.9233
 10347.2852   10350.1210  0.3082   36.3103
 10353.5205   10356.3580  0.2380    4.8870
 10354.4834   10357.3210  0.2431    4.5601
 10372.8838   10375.7260  0.3246   67.0213
 10396.5693   10399.4180  0.2833    3.3344
 10418.3877   10421.2430  0.5534    0.0000
